#interp_lag_SE 16384 -i99 -p1=.1 -p2=.1 -olag_16384_.1_.1.dat
#$Id$
  0.000000 -1.489166 -0.525333
  0.010000 -1.496523 -0.529507
  0.020000 -1.503836 -0.533651
  0.030000 -1.511091 -0.537750
  0.040000 -1.518297 -0.541812
  0.050000 -1.525449 -0.545832
  0.060000 -1.532547 -0.549809
  0.070000 -1.539596 -0.553745
  0.080000 -1.546609 -0.557652
  0.090000 -1.553581 -0.561521
  0.100000 -1.560496 -0.565334
  0.110000 -1.567338 -0.569077
  0.120000 -1.574109 -0.572761
  0.130000 -1.580818 -0.576396
  0.140000 -1.587475 -0.580002
  0.150000 -1.594068 -0.583573
  0.160000 -1.600593 -0.587106
  0.170000 -1.607043 -0.590596
  0.180000 -1.613431 -0.594072
  0.190000 -1.619775 -0.597550
  0.200000 -1.626078 -0.601033
  0.210000 -1.632335 -0.604515
  0.220000 -1.638551 -0.608006
  0.230000 -1.644738 -0.611518
  0.240000 -1.650891 -0.615044
  0.250000 -1.657020 -0.618587
  0.260000 -1.663135 -0.622154
  0.270000 -1.669240 -0.625730
  0.280000 -1.675351 -0.629327
  0.290000 -1.681460 -0.632942
  0.300000 -1.687558 -0.636568
  0.310000 -1.693632 -0.640200
  0.320000 -1.699693 -0.643839
  0.330000 -1.705739 -0.647480
  0.340000 -1.711768 -0.651117
  0.350000 -1.717784 -0.654744
  0.360000 -1.723784 -0.658359
  0.370000 -1.729767 -0.661970
  0.380000 -1.735717 -0.665556
  0.390000 -1.741647 -0.669122
  0.400000 -1.747566 -0.672686
  0.410000 -1.753478 -0.676259
  0.420000 -1.759387 -0.679845
  0.430000 -1.765287 -0.683431
  0.440000 -1.771161 -0.687013
  0.450000 -1.777000 -0.690578
  0.460000 -1.782798 -0.694130
  0.470000 -1.788548 -0.697670
  0.480000 -1.794272 -0.701211
  0.490000 -1.799971 -0.704748
  0.500000 -1.805658 -0.708289
  0.510000 -1.811342 -0.711841
  0.520000 -1.817028 -0.715397
  0.530000 -1.822704 -0.718954
  0.540000 -1.828388 -0.722532
  0.550000 -1.834086 -0.726141
  0.560000 -1.839779 -0.729767
  0.570000 -1.845460 -0.733396
  0.580000 -1.851105 -0.737013
  0.590000 -1.856719 -0.740626
  0.600000 -1.862304 -0.744237
  0.610000 -1.867839 -0.747831
  0.620000 -1.873315 -0.751391
  0.630000 -1.878746 -0.754921
  0.640000 -1.884122 -0.758428
  0.650000 -1.889447 -0.761911
  0.660000 -1.894720 -0.765373
  0.670000 -1.899943 -0.768820
  0.680000 -1.905116 -0.772260
  0.690000 -1.910251 -0.775686
  0.700000 -1.915333 -0.779081
  0.710000 -1.920363 -0.782457
  0.720000 -1.925337 -0.785810
  0.730000 -1.930246 -0.789119
  0.740000 -1.935068 -0.792366
  0.750000 -1.939806 -0.795553
  0.760000 -1.944463 -0.798673
  0.770000 -1.949049 -0.801730
  0.780000 -1.953587 -0.804746
  0.790000 -1.958076 -0.807724
  0.800000 -1.962512 -0.810676
  0.810000 -1.966898 -0.813603
  0.820000 -1.971235 -0.816490
  0.830000 -1.975532 -0.819335
  0.840000 -1.979788 -0.822140
  0.850000 -1.984004 -0.824919
  0.860000 -1.988179 -0.827658
  0.870000 -1.992294 -0.830353
  0.880000 -1.996352 -0.833004
  0.890000 -2.000340 -0.835603
  0.900000 -2.004259 -0.838156
  0.910000 -2.008108 -0.840651
  0.920000 -2.011888 -0.843078
  0.930000 -2.015615 -0.845455
  0.940000 -2.019294 -0.847783
  0.950000 -2.022905 -0.850050
  0.960000 -2.026453 -0.852244
  0.970000 -2.029939 -0.854369
  0.980000 -2.033378 -0.856441
  0.990000 -2.036776 -0.858477
  1.000000 -2.040121 -0.860474
  1.010000 -2.043401 -0.862418
  1.020000 -2.046607 -0.864306
  1.030000 -2.049721 -0.866125
  1.040000 -2.052744 -0.867881
  1.050000 -2.055683 -0.869569
  1.060000 -2.058535 -0.871180
  1.070000 -2.061305 -0.872724
  1.080000 -2.064007 -0.874219
  1.090000 -2.066626 -0.875654
  1.100000 -2.069171 -0.877039
  1.110000 -2.071632 -0.878365
  1.120000 -2.074013 -0.879643
  1.130000 -2.076308 -0.880871
  1.140000 -2.078513 -0.882046
  1.150000 -2.080611 -0.883159
  1.160000 -2.082603 -0.884211
  1.170000 -2.084490 -0.885197
  1.180000 -2.086258 -0.886105
  1.190000 -2.087906 -0.886926
  1.200000 -2.089427 -0.887653
  1.210000 -2.090838 -0.888301
  1.220000 -2.092144 -0.888877
  1.230000 -2.093351 -0.889400
  1.240000 -2.094445 -0.889854
  1.250000 -2.095432 -0.890244
  1.260000 -2.096295 -0.890551
  1.270000 -2.097034 -0.890775
  1.280000 -2.097663 -0.890933
  1.290000 -2.098187 -0.891046
  1.300000 -2.098606 -0.891116
  1.310000 -2.098931 -0.891151
  1.320000 -2.099154 -0.891143
  1.330000 -2.099277 -0.891095
  1.340000 -2.099298 -0.891006
  1.350000 -2.099220 -0.890878
  1.360000 -2.099033 -0.890702
  1.370000 -2.098747 -0.890487
  1.380000 -2.098361 -0.890246
  1.390000 -2.097891 -0.889997
  1.400000 -2.097335 -0.889743
  1.410000 -2.096686 -0.889469
  1.420000 -2.095932 -0.889168
  1.430000 -2.095075 -0.888842
  1.440000 -2.094111 -0.888490
  1.450000 -2.093053 -0.888124
  1.460000 -2.091922 -0.887759
  1.470000 -2.090698 -0.887373
  1.480000 -2.089378 -0.886963
  1.490000 -2.087981 -0.886541
  1.500000 -2.086521 -0.886115
  1.510000 -2.084993 -0.885682
  1.520000 -2.083396 -0.885241
  1.530000 -2.081749 -0.884795
  1.540000 -2.080056 -0.884346
  1.550000 -2.078311 -0.883882
  1.560000 -2.076509 -0.883391
  1.570000 -2.074656 -0.882883
  1.580000 -2.072760 -0.882367
  1.590000 -2.070841 -0.881848
  1.600000 -2.068887 -0.881323
  1.610000 -2.066890 -0.880787
  1.620000 -2.064859 -0.880258
  1.630000 -2.062792 -0.879735
  1.640000 -2.060683 -0.879213
  1.650000 -2.058548 -0.878702
  1.660000 -2.056394 -0.878192
  1.670000 -2.054225 -0.877678
  1.680000 -2.052037 -0.877154
  1.690000 -2.049830 -0.876615
  1.700000 -2.047600 -0.876058
  1.710000 -2.045358 -0.875487
  1.720000 -2.043092 -0.874907
  1.730000 -2.040800 -0.874308
  1.740000 -2.038496 -0.873705
  1.750000 -2.036180 -0.873107
  1.760000 -2.033857 -0.872524
  1.770000 -2.031502 -0.871943
  1.780000 -2.029114 -0.871355
  1.790000 -2.026683 -0.870754
  1.800000 -2.024204 -0.870144
  1.810000 -2.021675 -0.869516
  1.820000 -2.019102 -0.868869
  1.830000 -2.016473 -0.868196
  1.840000 -2.013802 -0.867512
  1.850000 -2.011086 -0.866821
  1.860000 -2.008318 -0.866124
  1.870000 -2.005514 -0.865434
  1.880000 -2.002674 -0.864753
  1.890000 -1.999797 -0.864069
  1.900000 -1.996860 -0.863362
  1.910000 -1.993836 -0.862601
  1.920000 -1.990734 -0.861794
  1.930000 -1.987543 -0.860920
  1.940000 -1.984267 -0.859990
  1.950000 -1.980919 -0.859012
  1.960000 -1.977488 -0.857980
  1.970000 -1.973972 -0.856902
  1.980000 -1.970386 -0.855797
  1.990000 -1.966745 -0.854665
  2.000000 -1.963055 -0.853513
  2.010000 -1.959310 -0.852335
  2.020000 -1.955523 -0.851143
  2.030000 -1.951695 -0.849954
  2.040000 -1.947828 -0.848766
  2.050000 -1.943936 -0.847584
  2.060000 -1.940020 -0.846397
  2.070000 -1.936079 -0.845211
  2.080000 -1.932110 -0.844030
  2.090000 -1.928110 -0.842844
  2.100000 -1.924084 -0.841655
  2.110000 -1.920045 -0.840472
  2.120000 -1.915964 -0.839287
  2.130000 -1.911821 -0.838079
  2.140000 -1.907622 -0.836855
  2.150000 -1.903368 -0.835613
  2.160000 -1.899041 -0.834333
  2.170000 -1.894639 -0.833014
  2.180000 -1.890156 -0.831645
  2.190000 -1.885588 -0.830214
  2.200000 -1.880955 -0.828739
  2.210000 -1.876244 -0.827211
  2.220000 -1.871460 -0.825632
  2.230000 -1.866625 -0.824030
  2.240000 -1.861741 -0.822402
  2.250000 -1.856809 -0.820757
  2.260000 -1.851829 -0.819084
  2.270000 -1.846806 -0.817375
  2.280000 -1.841709 -0.815611
  2.290000 -1.836545 -0.813816
  2.300000 -1.831304 -0.811967
  2.310000 -1.825984 -0.810062
  2.320000 -1.820596 -0.808114
  2.330000 -1.815134 -0.806113
  2.340000 -1.809592 -0.804057
  2.350000 -1.803980 -0.801949
  2.360000 -1.798296 -0.799773
  2.370000 -1.792535 -0.797528
  2.380000 -1.786706 -0.795224
  2.390000 -1.780810 -0.792843
  2.400000 -1.774841 -0.790381
  2.410000 -1.768801 -0.787845
  2.420000 -1.762685 -0.785228
  2.430000 -1.756500 -0.782531
  2.440000 -1.750254 -0.779757
  2.450000 -1.743933 -0.776901
  2.460000 -1.737517 -0.773954
  2.470000 -1.731026 -0.770935
  2.480000 -1.724486 -0.767845
  2.490000 -1.717904 -0.764691
  2.500000 -1.711289 -0.761492
  2.510000 -1.704640 -0.758246
  2.520000 -1.697949 -0.754945
  2.530000 -1.691208 -0.751576
  2.540000 -1.684404 -0.748138
  2.550000 -1.677562 -0.744643
  2.560000 -1.670690 -0.741107
  2.570000 -1.663787 -0.737545
  2.580000 -1.656848 -0.733958
  2.590000 -1.649884 -0.730342
  2.600000 -1.642899 -0.726694
  2.610000 -1.635893 -0.723018
  2.620000 -1.628861 -0.719309
  2.630000 -1.621803 -0.715564
  2.640000 -1.614704 -0.711775
  2.650000 -1.607559 -0.707932
  2.660000 -1.600382 -0.704048
  2.670000 -1.593172 -0.700122
  2.680000 -1.585926 -0.696159
  2.690000 -1.578641 -0.692141
  2.700000 -1.571309 -0.688050
  2.710000 -1.563937 -0.683881
  2.720000 -1.556524 -0.679643
  2.730000 -1.549067 -0.675343
  2.740000 -1.541557 -0.670980
  2.750000 -1.533992 -0.666545
  2.760000 -1.526369 -0.662027
  2.770000 -1.518697 -0.657430
  2.780000 -1.510967 -0.652748
  2.790000 -1.503190 -0.647987
  2.800000 -1.495361 -0.643145
  2.810000 -1.487474 -0.638217
  2.820000 -1.479539 -0.633214
  2.830000 -1.471567 -0.628147
  2.840000 -1.463566 -0.623026
  2.850000 -1.455530 -0.617850
  2.860000 -1.447459 -0.612625
  2.870000 -1.439372 -0.607364
  2.880000 -1.431276 -0.602072
  2.890000 -1.423187 -0.596759
  2.900000 -1.415101 -0.591422
  2.910000 -1.407014 -0.586048
  2.920000 -1.398919 -0.580632
  2.930000 -1.390818 -0.575174
  2.940000 -1.382710 -0.569683
  2.950000 -1.374593 -0.564159
  2.960000 -1.366458 -0.558602
  2.970000 -1.358312 -0.553022
  2.980000 -1.350163 -0.547423
  2.990000 -1.342018 -0.541807
  3.000000 -1.333864 -0.536162
  3.010000 -1.325688 -0.530481
  3.020000 -1.317483 -0.524755
  3.030000 -1.309267 -0.518993
  3.040000 -1.301054 -0.513201
  3.050000 -1.292873 -0.507404
  3.060000 -1.284724 -0.501605
  3.070000 -1.276598 -0.495778
  3.080000 -1.268492 -0.489931
  3.090000 -1.260400 -0.484060
  3.100000 -1.252323 -0.478175
  3.110000 -1.244271 -0.472300
  3.120000 -1.236252 -0.466437
  3.130000 -1.228258 -0.460577
  3.140000 -1.220284 -0.454708
  3.150000 -1.212327 -0.448835
  3.160000 -1.204393 -0.442959
  3.170000 -1.196465 -0.437061
  3.180000 -1.188537 -0.431133
  3.190000 -1.180601 -0.425175
  3.200000 -1.172673 -0.419183
  3.210000 -1.164739 -0.413152
  3.220000 -1.156799 -0.407080
  3.230000 -1.148859 -0.400970
  3.240000 -1.140910 -0.394814
  3.250000 -1.132955 -0.388615
  3.260000 -1.124990 -0.382371
  3.270000 -1.117011 -0.376073
  3.280000 -1.109023 -0.369726
  3.290000 -1.101037 -0.363333
  3.300000 -1.093051 -0.356903
  3.310000 -1.085063 -0.350443
  3.320000 -1.077061 -0.343926
  3.330000 -1.069020 -0.337344
  3.340000 -1.060955 -0.330707
  3.350000 -1.052872 -0.324017
  3.360000 -1.044752 -0.317265
  3.370000 -1.036598 -0.310459
  3.380000 -1.028426 -0.303614
  3.390000 -1.020235 -0.296732
  3.400000 -1.012027 -0.289811
  3.410000 -1.003793 -0.282837
  3.420000 -0.995523 -0.275791
  3.430000 -0.987228 -0.268688
  3.440000 -0.978927 -0.261523
  3.450000 -0.970640 -0.254316
  3.460000 -0.962368 -0.247072
  3.470000 -0.954098 -0.239774
  3.480000 -0.945827 -0.232432
  3.490000 -0.937544 -0.225039
  3.500000 -0.929254 -0.217611
  3.510000 -0.920964 -0.210159
  3.520000 -0.912681 -0.202676
  3.530000 -0.904410 -0.195151
  3.540000 -0.896144 -0.187574
  3.550000 -0.887873 -0.179940
  3.560000 -0.879595 -0.172243
  3.570000 -0.871310 -0.164488
  3.580000 -0.863008 -0.156664
  3.590000 -0.854699 -0.148767
  3.600000 -0.846388 -0.140804
  3.610000 -0.838109 -0.132800
  3.620000 -0.829867 -0.124763
  3.630000 -0.821660 -0.116692
  3.640000 -0.813484 -0.108592
  3.650000 -0.805313 -0.100438
  3.660000 -0.797157 -0.092250
  3.670000 -0.789039 -0.084033
  3.680000 -0.780956 -0.075793
  3.690000 -0.772899 -0.067533
  3.700000 -0.764865 -0.059250
  3.710000 -0.756852 -0.050940
  3.720000 -0.748850 -0.042599
  3.730000 -0.740846 -0.034221
  3.740000 -0.732864 -0.025816
  3.750000 -0.724893 -0.017380
  3.760000 -0.716928 -0.008907
  3.770000 -0.708976 -0.000394
  3.780000 -0.701047  0.008150
  3.790000 -0.693166  0.016707
  3.800000 -0.685318  0.025283
  3.810000 -0.677508  0.033859
  3.820000 -0.669738  0.042432
  3.830000 -0.662004  0.051007
  3.840000 -0.654308  0.059581
  3.850000 -0.646647  0.068160
  3.860000 -0.639025  0.076744
  3.870000 -0.631447  0.085323
  3.880000 -0.623912  0.093884
  3.890000 -0.616411  0.102432
  3.900000 -0.608939  0.110969
  3.910000 -0.601509  0.119483
  3.920000 -0.594113  0.127977
  3.930000 -0.586734  0.136467
  3.940000 -0.579388  0.144947
  3.950000 -0.572069  0.153416
  3.960000 -0.564773  0.161890
  3.970000 -0.557493  0.170372
  3.980000 -0.550221  0.178873
  3.990000 -0.542969  0.187389
  4.000000 -0.535729  0.195920
  4.010000 -0.528511  0.204465
  4.020000 -0.521300  0.213031
  4.030000 -0.514089  0.221612
  4.040000 -0.506878  0.230222
  4.050000 -0.499662  0.238873
  4.060000 -0.492437  0.247571
  4.070000 -0.485203  0.256318
  4.080000 -0.477950  0.265119
  4.090000 -0.470675  0.273973
  4.100000 -0.463386  0.282868
  4.110000 -0.456097  0.291795
  4.120000 -0.448821  0.300731
  4.130000 -0.441556  0.309677
  4.140000 -0.434291  0.318635
  4.150000 -0.427030  0.327602
  4.160000 -0.419778  0.336569
  4.170000 -0.412537  0.345536
  4.180000 -0.405324  0.354489
  4.190000 -0.398143  0.363431
  4.200000 -0.390994  0.372373
  4.210000 -0.383862  0.381318
  4.220000 -0.376748  0.390269
  4.230000 -0.369660  0.399216
  4.240000 -0.362592  0.408148
  4.250000 -0.355540  0.417068
  4.260000 -0.348521  0.425971
  4.270000 -0.341526  0.434864
  4.280000 -0.334536  0.443767
  4.290000 -0.327553  0.452674
  4.300000 -0.320585  0.461565
  4.310000 -0.313652  0.470423
  4.320000 -0.306748  0.479256
  4.330000 -0.299872  0.488064
  4.340000 -0.293039  0.496836
  4.350000 -0.286256  0.505566
  4.360000 -0.279505  0.514277
  4.370000 -0.272783  0.522979
  4.380000 -0.266091  0.531670
  4.390000 -0.259446  0.540328
  4.400000 -0.252849  0.548949
  4.410000 -0.246297  0.557543
  4.420000 -0.239785  0.566117
  4.430000 -0.233319  0.574663
  4.440000 -0.226898  0.583187
  4.450000 -0.220532  0.591683
  4.460000 -0.214217  0.600149
  4.470000 -0.207949  0.608600
  4.480000 -0.201735  0.617015
  4.490000 -0.195570  0.625410
  4.500000 -0.189440  0.633774
  4.510000 -0.183340  0.642102
  4.520000 -0.177266  0.650395
  4.530000 -0.171234  0.658646
  4.540000 -0.165234  0.666881
  4.550000 -0.159264  0.675101
  4.560000 -0.153333  0.683302
  4.570000 -0.147437  0.691486
  4.580000 -0.141564  0.699660
  4.590000 -0.135694  0.707837
  4.600000 -0.129849  0.715989
  4.610000 -0.124019  0.724125
  4.620000 -0.118207  0.732257
  4.630000 -0.112425  0.740389
  4.640000 -0.106663  0.748515
  4.650000 -0.100901  0.756651
  4.660000 -0.095156  0.764778
  4.670000 -0.089442  0.772892
  4.680000 -0.083761  0.780998
  4.690000 -0.078101  0.789110
  4.700000 -0.072461  0.797222
  4.710000 -0.066848  0.805327
  4.720000 -0.061268  0.813420
  4.730000 -0.055720  0.821520
  4.740000 -0.050210  0.829628
  4.750000 -0.044733  0.837736
  4.760000 -0.039288  0.845832
  4.770000 -0.033864  0.853916
  4.780000 -0.028450  0.862005
  4.790000 -0.023035  0.870096
  4.800000 -0.017620  0.878190
  4.810000 -0.012210  0.886286
  4.820000 -0.006799  0.894378
  4.830000 -0.001408  0.902448
  4.840000  0.003942  0.910485
  4.850000  0.009261  0.918490
  4.860000  0.014559  0.926468
  4.870000  0.019835  0.934413
  4.880000  0.025108  0.942351
  4.890000  0.030363  0.950274
  4.900000  0.035588  0.958181
  4.910000  0.040787  0.966062
  4.920000  0.045946  0.973902
  4.930000  0.051061  0.981699
  4.940000  0.056139  0.989455
  4.950000  0.061180  0.997160
  4.960000  0.066182  1.004812
  4.970000  0.071146  1.012409
  4.980000  0.076058  1.019935
  4.990000  0.080919  1.027392
  5.000000  0.085717  1.034777
  5.010000  0.090437  1.042074
  5.020000  0.095091  1.049290
  5.030000  0.099676  1.056423
  5.040000  0.104199  1.063489
  5.050000  0.108668  1.070486
  5.060000  0.113089  1.077430
  5.070000  0.117484  1.084336
  5.080000  0.121837  1.091202
  5.090000  0.126142  1.098028
  5.100000  0.130408  1.104822
  5.110000  0.134627  1.111572
  5.120000  0.138799  1.118285
  5.130000  0.142928  1.124969
  5.140000  0.147024  1.131626
  5.150000  0.151124  1.138271
  5.160000  0.155210  1.144898
  5.170000  0.159262  1.151476
  5.180000  0.163280  1.157994
  5.190000  0.167271  1.164463
  5.200000  0.171226  1.170897
  5.210000  0.175143  1.177296
  5.220000  0.179026  1.183654
  5.230000  0.182870  1.189967
  5.240000  0.186658  1.196225
  5.250000  0.190397  1.202429
  5.260000  0.194094  1.208575
  5.270000  0.197743  1.214669
  5.280000  0.201342  1.220714
  5.290000  0.204868  1.226694
  5.300000  0.208321  1.232608
  5.310000  0.211724  1.238482
  5.320000  0.215092  1.244327
  5.330000  0.218426  1.250135
  5.340000  0.221708  1.255899
  5.350000  0.224938  1.261628
  5.360000  0.228118  1.267325
  5.370000  0.231246  1.272981
  5.380000  0.234321  1.278600
  5.390000  0.237358  1.284196
  5.400000  0.240362  1.289758
  5.410000  0.243323  1.295265
  5.420000  0.246233  1.300706
  5.430000  0.249110  1.306082
  5.440000  0.251963  1.311404
  5.450000  0.254789  1.316672
  5.460000  0.257587  1.321882
  5.470000  0.260346  1.327026
  5.480000  0.263057  1.332098
  5.490000  0.265724  1.337100
  5.500000  0.268334  1.342015
  5.510000  0.270887  1.346848
  5.520000  0.273400  1.351611
  5.530000  0.275871  1.356297
  5.540000  0.278302  1.360896
  5.550000  0.280681  1.365412
  5.560000  0.283001  1.369845
  5.570000  0.285253  1.374189
  5.580000  0.287448  1.378465
  5.590000  0.289583  1.382665
  5.600000  0.291660  1.386792
  5.610000  0.293688  1.390861
  5.620000  0.295667  1.394863
  5.630000  0.297619  1.398808
  5.640000  0.299545  1.402700
  5.650000  0.301440  1.406531
  5.660000  0.303296  1.410288
  5.670000  0.305103  1.413973
  5.680000  0.306853  1.417578
  5.690000  0.308543  1.421105
  5.700000  0.310183  1.424581
  5.710000  0.311774  1.428006
  5.720000  0.313312  1.431363
  5.730000  0.314791  1.434651
  5.740000  0.316247  1.437894
  5.750000  0.317690  1.441092
  5.760000  0.319097  1.444229
  5.770000  0.320472  1.447302
  5.780000  0.321826  1.450324
  5.790000  0.323159  1.453315
  5.800000  0.324478  1.456270
  5.810000  0.325766  1.459178
  5.820000  0.327016  1.462034
  5.830000  0.328206  1.464819
  5.840000  0.329342  1.467530
  5.850000  0.330426  1.470176
  5.860000  0.331449  1.472744
  5.870000  0.332418  1.475235
  5.880000  0.333335  1.477635
  5.890000  0.334192  1.479945
  5.900000  0.334993  1.482171
  5.910000  0.335727  1.484309
  5.920000  0.336389  1.486359
  5.930000  0.336995  1.488348
  5.940000  0.337536  1.490263
  5.950000  0.338016  1.492091
  5.960000  0.338440  1.493839
  5.970000  0.338823  1.495509
  5.980000  0.339171  1.497116
  5.990000  0.339471  1.498653
  6.000000  0.339730  1.500110
  6.010000  0.339952  1.501484
  6.020000  0.340126  1.502766
  6.030000  0.340269  1.503971
  6.040000  0.340377  1.505098
  6.050000  0.340450  1.506152
  6.060000  0.340493  1.507140
  6.070000  0.340513  1.508060
  6.080000  0.340524  1.508912
  6.090000  0.340522  1.509703
  6.100000  0.340489  1.510422
  6.110000  0.340429  1.511076
  6.120000  0.340339  1.511652
  6.130000  0.340209  1.512164
  6.140000  0.340043  1.512613
  6.150000  0.339842  1.513000
  6.160000  0.339603  1.513333
  6.170000  0.339333  1.513606
  6.180000  0.339041  1.513820
  6.190000  0.338727  1.513977
  6.200000  0.338388  1.514074
  6.210000  0.338024  1.514099
  6.220000  0.337640  1.514068
  6.230000  0.337266  1.514009
  6.240000  0.336916  1.513921
  6.250000  0.336585  1.513798
  6.260000  0.336271  1.513643
  6.270000  0.335969  1.513452
  6.280000  0.335663  1.513208
  6.290000  0.335335  1.512910
  6.300000  0.334992  1.512551
  6.310000  0.334629  1.512139
  6.320000  0.334245  1.511681
  6.330000  0.333838  1.511164
  6.340000  0.333405  1.510591
  6.350000  0.332955  1.509967
  6.360000  0.332480  1.509299
  6.370000  0.331992  1.508601
  6.380000  0.331489  1.507867
  6.390000  0.330966  1.507088
  6.400000  0.330428  1.506268
  6.410000  0.329874  1.505416
